Time (s),Position (m)
0.000000,0.000000
0.010000,0.199443
0.020000,0.397770
0.030000,0.594982
0.040000,0.791080
0.050000,0.986062
0.060000,1.179930
0.070000,1.372683
0.080000,1.564320
0.090000,1.754842
0.100000,1.944250
0.110000,2.132542
0.120000,2.319720
0.130000,2.505782
0.140000,2.690730
0.150000,2.874563
0.160000,3.057280
0.170000,3.238883
0.180000,3.419370
0.190000,3.598743
0.200000,3.777000
0.210000,3.954143
0.220000,4.130170
0.230000,4.305083
0.240000,4.478880
0.250000,4.651563
0.260000,4.823130
0.270000,4.993583
0.280000,5.162920
0.290000,5.331143
0.300000,5.498250
0.310000,5.664243
0.320000,5.829120
0.330000,5.992883
0.340000,6.155530
0.350000,6.317063
0.360000,6.477480
0.370000,6.636783
0.380000,6.794970
0.390000,6.952043
0.400000,7.108000
0.410000,7.262843
0.420000,7.416570
0.430000,7.569183
0.440000,7.720680
0.450000,7.871063
0.460000,8.020330
0.470000,8.168483
0.480000,8.315520
0.490000,8.461443
0.500000,8.606250
0.510000,8.749943
0.520000,8.892520
0.530000,9.033983
0.540000,9.174330
0.550000,9.313563
0.560000,9.451680
0.570000,9.588683
0.580000,9.724570
0.590000,9.859343
0.600000,9.993000
0.610000,10.125543
0.620000,10.256970
0.630000,10.387283
0.640000,10.516480
0.650000,10.644563
0.660000,10.771530
0.670000,10.897383
0.680000,11.022120
0.690000,11.145743
0.700000,11.268250
0.710000,11.389643
0.720000,11.509920
0.730000,11.629083
0.740000,11.747130
0.750000,11.864063
0.760000,11.979880
0.770000,12.094583
0.780000,12.208170
0.790000,12.320643
0.800000,12.432000
0.810000,12.542243
0.820000,12.651370
0.830000,12.759383
0.840000,12.866280
0.850000,12.972063
0.860000,13.076730
0.870000,13.180283
0.880000,13.282720
0.890000,13.384043
0.900000,13.484250
0.910000,13.583343
0.920000,13.681320
0.930000,13.778183
0.940000,13.873930
0.950000,13.968563
0.960000,14.062080
0.970000,14.154483
0.980000,14.245770
0.990000,14.335943
1.000000,14.425000
1.010000,14.512943
1.020000,14.599770
1.030000,14.685483
1.040000,14.770080
1.050000,14.853563
1.060000,14.935930
1.070000,15.017183
1.080000,15.097320
1.090000,15.176343
1.100000,15.254250
1.110000,15.331043
1.120000,15.406720
1.130000,15.481283
1.140000,15.554730
1.150000,15.627063
1.160000,15.698280
1.170000,15.768383
1.180000,15.837370
1.190000,15.905243
1.200000,15.972000
1.210000,16.037643
1.220000,16.102170
1.230000,16.165583
1.240000,16.227880
1.250000,16.289063
1.260000,16.349130
1.270000,16.408083
1.280000,16.465920
1.290000,16.522643
1.300000,16.578250
1.310000,16.632743
1.320000,16.686120
1.330000,16.738383
1.340000,16.789530
1.350000,16.839563
1.360000,16.888480
1.370000,16.936283
1.380000,16.982970
1.390000,17.028543
1.400000,17.073000
1.410000,17.116343
1.420000,17.158570
1.430000,17.199683
1.440000,17.239680
1.450000,17.278563
1.460000,17.316330
1.470000,17.352983
1.480000,17.388520
1.490000,17.422943
1.500000,17.456250
1.510000,17.488443
1.520000,17.519520
1.530000,17.549483
1.540000,17.578330
1.550000,17.606063
1.560000,17.632680
1.570000,17.658183
1.580000,17.682570
1.590000,17.705843
1.600000,17.728000
1.610000,17.749043
1.620000,17.768970
1.630000,17.787782
1.640000,17.805480
1.650000,17.822063
1.660000,17.837530
1.670000,17.851883
1.680000,17.865120
1.690000,17.877243
1.700000,17.888250
1.710000,17.898142
1.720000,17.906920
1.730000,17.914582
1.740000,17.921130
1.750000,17.926562
1.760000,17.930880
1.770000,17.934082
1.780000,17.936170
1.790000,17.937143
1.800000,17.937000
1.810000,17.935742
1.820000,17.933370
1.830000,17.929883
1.840000,17.925280
1.850000,17.919562
1.860000,17.912730
1.870000,17.904782
1.880000,17.895720
1.890000,17.885542
1.900000,17.874250
1.910000,17.861843
1.920000,17.848320
1.930000,17.833682
1.940000,17.817930
1.950000,17.801062
1.960000,17.783080
1.970000,17.763983
1.980000,17.743770
1.990000,17.722442
2.000000,17.700000
2.010000,17.676442
2.020000,17.651770
2.030000,17.625982
2.040000,17.599080
2.050000,17.571063
2.060000,17.541930
2.070000,17.511682
2.080000,17.480320
2.090000,17.447843
2.100000,17.414250
2.110000,17.379543
2.120000,17.343720
2.130000,17.306783
2.140000,17.268730
2.150000,17.229563
2.160000,17.189280
2.170000,17.147883
2.180000,17.105370
2.190000,17.061743
2.200000,17.017000
2.210000,16.971143
2.220000,16.924170
2.230000,16.876083
2.240000,16.826880
2.250000,16.776563
2.260000,16.725130
2.270000,16.672583
2.280000,16.618920
2.290000,16.564143
2.300000,16.508250
2.310000,16.451243
2.320000,16.393120
2.330000,16.333883
2.340000,16.273530
2.350000,16.212063
2.360000,16.149480
2.370000,16.085783
2.380000,16.020970
2.390000,15.955043
2.400000,15.888000
2.410000,15.819843
2.420000,15.750570
2.430000,15.680183
2.440000,15.608680
2.450000,15.536063
2.460000,15.462330
2.470000,15.387483
2.480000,15.311520
2.490000,15.234443
2.500000,15.156250
2.510000,15.076943
2.520000,14.996520
2.530000,14.914983
2.540000,14.832330
2.550000,14.748563
2.560000,14.663680
2.570000,14.577683
2.580000,14.490570
2.590000,14.402343
2.600000,14.313000
2.610000,14.222543
2.620000,14.130970
2.630000,14.038283
2.640000,13.944480
2.650000,13.849563
2.660000,13.753530
2.670000,13.656383
2.680000,13.558120
2.690000,13.458743
2.700000,13.358250
2.710000,13.256643
2.720000,13.153920
2.730000,13.050083
2.740000,12.945130
2.750000,12.839063
2.760000,12.731880
2.770000,12.623583
2.780000,12.514170
2.790000,12.403643
2.800000,12.292000
2.810000,12.179243
2.820000,12.065370
2.830000,11.950383
2.840000,11.834280
2.850000,11.717063
2.860000,11.598730
2.870000,11.479283
2.880000,11.358720
2.890000,11.237043
2.900000,11.114250
2.910000,10.990343
2.920000,10.865320
2.930000,10.739183
2.940000,10.611930
2.950000,10.483563
2.960000,10.354080
2.970000,10.223483
2.980000,10.091770
2.990000,9.958943
3.000000,9.825000
3.010000,9.689943
3.020000,9.553770
3.030000,9.416483
3.040000,9.278080
3.050000,9.138563
3.060000,8.997930
3.070000,8.856183
3.080000,8.713320
3.090000,8.569343
3.100000,8.424250
3.110000,8.278043
3.120000,8.130720
3.130000,7.982283
3.140000,7.832730
3.150000,7.682063
3.160000,7.530280
3.170000,7.377383
3.180000,7.223370
3.190000,7.068243
3.200000,6.912000
3.210000,6.754643
3.220000,6.596170
3.230000,6.436583
3.240000,6.275880
3.250000,6.114063
3.260000,5.951130
3.270000,5.787083
3.280000,5.621920
3.290000,5.455643
3.300000,5.288250
3.310000,5.119743
3.320000,4.950120
3.330000,4.779383
3.340000,4.607530
3.350000,4.434563
3.360000,4.260480
3.370000,4.085283
3.380000,3.908970
3.390000,3.731543
3.400000,3.553000
3.410000,3.373343
3.420000,3.192570
3.430000,3.010683
3.440000,2.827680
3.450000,2.643563
3.460000,2.458330
3.470000,2.271983
3.480000,2.084520
3.490000,1.895943
3.500000,1.706250
3.510000,1.515443
3.520000,1.323520
3.530000,1.130483
3.540000,0.936330
3.550000,0.741063
3.560000,0.544680
3.570000,0.347183
3.580000,0.148570
3.590000,0.000000
